#title u, U -> G, ~h1, ~h1;u, U -> G, ~h1, ~h2;u, U -> G, ~h2, ~h2;u, G -> u, ~h1, ~h1;u, G -> u, ~h1, ~h2;u, G -> u, ~h2, ~h2;U, u -> G, ~h1, ~h1;U, u -> G, ~h1, ~h2;U, u -> G, ~h2, ~h2;U, G -> U, ~h1, ~h1;U, G -> U, ~h1, ~h2;U, G -> U, ~h2, ~h2;d, D -> G, ~h1, ~h1;d, D -> G, ~h1, ~h2;d, D -> G, ~h2, ~h2;d, G -> d, ~h1, ~h1;d, G -> d, ~h1, ~h2;d, G -> d, ~h2, ~h2;D, d -> G, ~h1, ~h1;D, d -> G, ~h1, ~h2;D, d -> G, ~h2, ~h2;D, G -> D, ~h1, ~h1;D, G -> D, ~h1, ~h2;D, G -> D, ~h2, ~h2;G, u -> u, ~h1, ~h1;G, u -> u, ~h1, ~h2;G, u -> u, ~h2, ~h2;G, U -> U, ~h1, ~h1;G, U -> U, ~h1, ~h2;G, U -> U, ~h2, ~h2;G, d -> d, ~h1, ~h1;G, d -> d, ~h1, ~h2;G, d -> d, ~h2, ~h2;G, D -> D, ~h1, ~h1;G, D -> D, ~h1, ~h2;G, D -> D, ~h2, ~h2;G, G -> G, ~h1, ~h1;G, G -> G, ~h2, ~h2
#yName Diff. cross section [pb/GeV]{h}
#xName Z(jet)
#xMin 0.000000E+00
#xMax 1.000000E+03
#xDim 100
#---   starting of data ---
#  Diff. cross   d(Diff. cros
# 0.000000E+00    0.000000E+00
# 0.000000E+00    0.000000E+00
# 0.000000E+00    0.000000E+00
# 0.000000E+00    0.000000E+00
# 0.000000E+00    0.000000E+00
# 0.000000E+00    0.000000E+00
# 0.000000E+00    0.000000E+00
# 0.000000E+00    0.000000E+00
# 0.000000E+00    0.000000E+00
# 0.000000E+00    0.000000E+00
 5.882063E-08    7.821408E-11
 5.071783E-08    6.761697E-11
 4.406911E-08    5.945160E-11
 3.873206E-08    5.268093E-11
 3.418102E-08    4.705910E-11
 3.049588E-08    4.267079E-11
 2.727022E-08    3.887387E-11
 2.450229E-08    3.537507E-11
 2.211780E-08    3.246270E-11
 2.005525E-08    2.998216E-11
 1.824201E-08    2.778317E-11
 1.665244E-08    2.586036E-11
 1.522903E-08    2.410504E-11
 1.398214E-08    2.262554E-11
 1.281802E-08    2.118198E-11
 1.188420E-08    1.995639E-11
 1.094762E-08    1.878898E-11
 1.013625E-08    1.774481E-11
 9.440244E-09    1.680737E-11
 8.720311E-09    1.590839E-11
 8.096288E-09    1.502043E-11
 7.581369E-09    1.434486E-11
 7.061013E-09    1.365178E-11
 6.574881E-09    1.293234E-11
 6.166309E-09    1.242371E-11
 5.785350E-09    1.190713E-11
 5.406953E-09    1.132151E-11
 5.078624E-09    1.086436E-11
 4.779810E-09    1.040561E-11
 4.471602E-09    9.951236E-12
 4.209839E-09    9.582663E-12
 3.961867E-09    9.173750E-12
 3.732112E-09    8.804438E-12
 3.515043E-09    8.544003E-12
 3.312793E-09    8.153712E-12
 3.116081E-09    7.793957E-12
 2.972424E-09    7.604451E-12
 2.800118E-09    7.287336E-12
 2.647389E-09    7.082448E-12
 2.518200E-09    6.831940E-12
 2.360200E-09    6.516063E-12
 2.247018E-09    6.361747E-12
 2.130389E-09    6.166045E-12
 2.026034E-09    6.040191E-12
 1.923784E-09    5.791750E-12
 1.821884E-09    5.578487E-12
 1.734897E-09    5.425508E-12
 1.650016E-09    5.299895E-12
 1.564636E-09    5.082284E-12
 1.487175E-09    4.954867E-12
 1.413380E-09    4.788647E-12
 1.348741E-09    4.675858E-12
 1.279617E-09    4.573487E-12
 1.218326E-09    4.434693E-12
 1.162907E-09    4.289488E-12
 1.109158E-09    4.154368E-12
 1.050759E-09    4.005597E-12
 1.012326E-09    3.935509E-12
 9.596750E-10    3.840586E-12
 9.212800E-10    3.722824E-12
 8.679967E-10    3.616075E-12
 8.332926E-10    3.520590E-12
 7.924618E-10    3.440757E-12
 7.575375E-10    3.345828E-12
 7.290317E-10    3.245936E-12
 6.863346E-10    3.155913E-12
 6.622357E-10    3.138914E-12
 6.332381E-10    3.013319E-12
 6.078051E-10    2.938871E-12
 5.826592E-10    2.945220E-12
 5.525760E-10    2.814463E-12
 5.262733E-10    2.768737E-12
 5.077038E-10    2.720665E-12
 4.851185E-10    2.615611E-12
 4.634830E-10    2.533222E-12
 4.408179E-10    2.469657E-12
 4.223882E-10    2.448595E-12
 4.062414E-10    2.375716E-12
 3.908638E-10    2.327424E-12
 3.776698E-10    2.313408E-12
 3.579977E-10    2.239768E-12
 3.472839E-10    2.233586E-12
 3.270315E-10    2.130885E-12
 3.146586E-10    2.079757E-12
 3.015060E-10    2.040302E-12
 2.917752E-10    2.036746E-12
 2.780988E-10    1.952659E-12
 2.629870E-10    1.899077E-12
 2.492324E-10    1.844919E-12
 2.448699E-10    1.854530E-12
