#title u, U -> G, ~h1, ~h1;u, U -> G, ~h1, ~h2;u, U -> G, ~h2, ~h2;u, G -> u, ~h1, ~h1;u, G -> u, ~h1, ~h2;u, G -> u, ~h2, ~h2;U, u -> G, ~h1, ~h1;U, u -> G, ~h1, ~h2;U, u -> G, ~h2, ~h2;U, G -> U, ~h1, ~h1;U, G -> U, ~h1, ~h2;U, G -> U, ~h2, ~h2;d, D -> G, ~h1, ~h1;d, D -> G, ~h1, ~h2;d, D -> G, ~h2, ~h2;d, G -> d, ~h1, ~h1;d, G -> d, ~h1, ~h2;d, G -> d, ~h2, ~h2;D, d -> G, ~h1, ~h1;D, d -> G, ~h1, ~h2;D, d -> G, ~h2, ~h2;D, G -> D, ~h1, ~h1;D, G -> D, ~h1, ~h2;D, G -> D, ~h2, ~h2;s, S -> G, ~h1, ~h1;s, S -> G, ~h1, ~h2;s, S -> G, ~h2, ~h2;s, G -> s, ~h1, ~h1;s, G -> s, ~h1, ~h2;s, G -> s, ~h2, ~h2;S, s -> G, ~h1, ~h1;S, s -> G, ~h1, ~h2;S, s -> G, ~h2, ~h2;S, G -> S, ~h1, ~h1;S, G -> S, ~h1, ~h2;S, G -> S, ~h2, ~h2;c, C -> G, ~h1, ~h1;c, C -> G, ~h1, ~h2;c, C -> G, ~h2, ~h2;c, G -> c, ~h1, ~h1;c, G -> c, ~h1, ~h2;c, G -> c, ~h2, ~h2;C, c -> G, ~h1, ~h1;C, c -> G, ~h1, ~h2;C, c -> G, ~h2, ~h2;C, G -> C, ~h1, ~h1;C, G -> C, ~h1, ~h2;C, G -> C, ~h2, ~h2;b, B -> G, ~h1, ~h1;b, B -> G, ~h1, ~h2;b, B -> G, ~h2, ~h2;b, G -> b, ~h1, ~h1;b, G -> b, ~h1, ~h2;b, G -> b, ~h2, ~h2;B, b -> G, ~h1, ~h1;B, b -> G, ~h1, ~h2;B, b -> G, ~h2, ~h2;B, G -> B, ~h1, ~h1;B, G -> B, ~h1, ~h2;B, G -> B, ~h2, ~h2;G, u -> u, ~h1, ~h1;G, u -> u, ~h1, ~h2;G, u -> u, ~h2, ~h2;G, U -> U, ~h1, ~h1;G, U -> U, ~h1, ~h2;G, U -> U, ~h2, ~h2;G, d -> d, ~h1, ~h1;G, d -> d, ~h1, ~h2;G, d -> d, ~h2, ~h2;G, D -> D, ~h1, ~h1;G, D -> D, ~h1, ~h2;G, D -> D, ~h2, ~h2;G, s -> s, ~h1, ~h1;G, s -> s, ~h1, ~h2;G, s -> s, ~h2, ~h2;G, S -> S, ~h1, ~h1;G, S -> S, ~h1, ~h2;G, S -> S, ~h2, ~h2;G, c -> c, ~h1, ~h1;G, c -> c, ~h1, ~h2;G, c -> c, ~h2, ~h2;G, C -> C, ~h1, ~h1;G, C -> C, ~h1, ~h2;G, C -> C, ~h2, ~h2;G, b -> b, ~h1, ~h1;G, b -> b, ~h1, ~h2;G, b -> b, ~h2, ~h2;G, B -> B, ~h1, ~h1;G, B -> B, ~h1, ~h2;G, B -> B, ~h2, ~h2;G, G -> G, ~h1, ~h1;G, G -> G, ~h2, ~h2
#yName Diff. cross section [pb/GeV]{h}
#xName Z(jet)
#xMin 0.000000E+00
#xMax 1.000000E+03
#xDim 100
#---   starting of data ---
#  Diff. cross   d(Diff. cros
# 0.000000E+00    0.000000E+00
# 0.000000E+00    0.000000E+00
# 0.000000E+00    0.000000E+00
# 0.000000E+00    0.000000E+00
# 0.000000E+00    0.000000E+00
# 0.000000E+00    0.000000E+00
# 0.000000E+00    0.000000E+00
# 0.000000E+00    0.000000E+00
# 0.000000E+00    0.000000E+00
# 0.000000E+00    0.000000E+00
 6.659124E-07    2.463585E-09
 5.709914E-07    2.116562E-09
 4.973029E-07    1.845570E-09
 4.333087E-07    1.625119E-09
 3.802965E-07    1.440770E-09
 3.384383E-07    1.292834E-09
 3.014413E-07    1.178007E-09
 2.694353E-07    1.075612E-09
 2.418013E-07    1.100950E-09
 2.184139E-07    9.026638E-10
 1.969267E-07    8.286508E-10
 1.779588E-07    7.604845E-10
 1.628448E-07    7.198540E-10
 1.482514E-07    6.592073E-10
 1.367583E-07    6.263879E-10
 1.253279E-07    5.845962E-10
 1.154475E-07    5.517071E-10
 1.052094E-07    5.157466E-10
 9.812492E-08    4.876041E-10
 9.060622E-08    4.627733E-10
 8.296603E-08    4.541718E-10
 7.774013E-08    4.109103E-10
 7.313976E-08    3.988287E-10
 6.709493E-08    3.711612E-10
 6.207972E-08    3.647304E-10
 5.869103E-08    3.402924E-10
 5.463458E-08    3.302378E-10
 5.144025E-08    3.339963E-10
 4.791141E-08    2.974293E-10
 4.418626E-08    2.833551E-10
 4.197639E-08    2.751652E-10
 3.920884E-08    2.615347E-10
 3.667366E-08    2.521941E-10
 3.446168E-08    2.471904E-10
 3.289643E-08    2.374651E-10
 3.068880E-08    2.398494E-10
 2.869992E-08    2.206589E-10
 2.693849E-08    2.069705E-10
 2.545693E-08    2.100309E-10
 2.380247E-08    1.929072E-10
 2.286205E-08    1.881272E-10
 2.144115E-08    1.798109E-10
 2.054902E-08    1.765267E-10
 1.901921E-08    1.695223E-10
 1.782564E-08    1.613395E-10
 1.691443E-08    1.619858E-10
 1.632408E-08    1.573374E-10
 1.511194E-08    1.484004E-10
 1.444186E-08    1.453584E-10
 1.375739E-08    1.412690E-10
 1.303786E-08    1.388906E-10
 1.233372E-08    1.331409E-10
 1.172329E-08    1.304873E-10
 1.128029E-08    1.300628E-10
 1.062938E-08    1.221864E-10
 1.007236E-08    1.172007E-10
 9.548746E-09    1.251894E-10
 9.250593E-09    1.204133E-10
 8.679857E-09    1.109183E-10
 8.091694E-09    1.065227E-10
 7.719169E-09    1.057267E-10
 7.482173E-09    1.030793E-10
 7.025876E-09    9.949607E-11
 6.581345E-09    9.740333E-11
 6.400951E-09    9.539723E-11
 5.918256E-09    9.051447E-11
 5.765455E-09    1.206235E-10
 5.702337E-09    9.416447E-11
 5.181791E-09    8.317383E-11
 5.063388E-09    8.853984E-11
 4.652490E-09    7.756117E-11
 4.623970E-09    8.157475E-11
 4.337793E-09    8.067914E-11
 4.058746E-09    7.272487E-11
 3.752649E-09    7.234023E-11
 3.743952E-09    7.057654E-11
 3.644044E-09    7.424724E-11
 3.512964E-09    7.444809E-11
 3.215944E-09    6.562446E-11
 3.197239E-09    7.209085E-11
 2.934459E-09    6.070106E-11
 2.866476E-09    6.433142E-11
 2.687523E-09    6.377726E-11
 2.489821E-09    5.832018E-11
 2.516486E-09    6.091424E-11
 2.389815E-09    6.357022E-11
 2.180710E-09    5.321411E-11
 2.166965E-09    6.126791E-11
 2.043824E-09    5.810364E-11
 1.962635E-09    5.355433E-11
