#title u, U -> G, ~h1, ~h1;u, U -> G, ~h1, ~h2;u, U -> G, ~h2, ~h2;u, G -> u, ~h1, ~h1;u, G -> u, ~h1, ~h2;u, G -> u, ~h2, ~h2;U, u -> G, ~h1, ~h1;U, u -> G, ~h1, ~h2;U, u -> G, ~h2, ~h2;U, G -> U, ~h1, ~h1;U, G -> U, ~h1, ~h2;U, G -> U, ~h2, ~h2;d, D -> G, ~h1, ~h1;d, D -> G, ~h1, ~h2;d, D -> G, ~h2, ~h2;d, G -> d, ~h1, ~h1;d, G -> d, ~h1, ~h2;d, G -> d, ~h2, ~h2;D, d -> G, ~h1, ~h1;D, d -> G, ~h1, ~h2;D, d -> G, ~h2, ~h2;D, G -> D, ~h1, ~h1;D, G -> D, ~h1, ~h2;D, G -> D, ~h2, ~h2;s, S -> G, ~h1, ~h1;s, S -> G, ~h1, ~h2;s, S -> G, ~h2, ~h2;s, G -> s, ~h1, ~h1;s, G -> s, ~h1, ~h2;s, G -> s, ~h2, ~h2;S, s -> G, ~h1, ~h1;S, s -> G, ~h1, ~h2;S, s -> G, ~h2, ~h2;S, G -> S, ~h1, ~h1;S, G -> S, ~h1, ~h2;S, G -> S, ~h2, ~h2;c, C -> G, ~h1, ~h1;c, C -> G, ~h1, ~h2;c, C -> G, ~h2, ~h2;c, G -> c, ~h1, ~h1;c, G -> c, ~h1, ~h2;c, G -> c, ~h2, ~h2;C, c -> G, ~h1, ~h1;C, c -> G, ~h1, ~h2;C, c -> G, ~h2, ~h2;C, G -> C, ~h1, ~h1;C, G -> C, ~h1, ~h2;C, G -> C, ~h2, ~h2;b, B -> G, ~h1, ~h1;b, B -> G, ~h1, ~h2;b, B -> G, ~h2, ~h2;b, G -> b, ~h1, ~h1;b, G -> b, ~h1, ~h2;b, G -> b, ~h2, ~h2;B, b -> G, ~h1, ~h1;B, b -> G, ~h1, ~h2;B, b -> G, ~h2, ~h2;B, G -> B, ~h1, ~h1;B, G -> B, ~h1, ~h2;B, G -> B, ~h2, ~h2;G, u -> u, ~h1, ~h1;G, u -> u, ~h1, ~h2;G, u -> u, ~h2, ~h2;G, U -> U, ~h1, ~h1;G, U -> U, ~h1, ~h2;G, U -> U, ~h2, ~h2;G, d -> d, ~h1, ~h1;G, d -> d, ~h1, ~h2;G, d -> d, ~h2, ~h2;G, D -> D, ~h1, ~h1;G, D -> D, ~h1, ~h2;G, D -> D, ~h2, ~h2;G, s -> s, ~h1, ~h1;G, s -> s, ~h1, ~h2;G, s -> s, ~h2, ~h2;G, S -> S, ~h1, ~h1;G, S -> S, ~h1, ~h2;G, S -> S, ~h2, ~h2;G, c -> c, ~h1, ~h1;G, c -> c, ~h1, ~h2;G, c -> c, ~h2, ~h2;G, C -> C, ~h1, ~h1;G, C -> C, ~h1, ~h2;G, C -> C, ~h2, ~h2;G, b -> b, ~h1, ~h1;G, b -> b, ~h1, ~h2;G, b -> b, ~h2, ~h2;G, B -> B, ~h1, ~h1;G, B -> B, ~h1, ~h2;G, B -> B, ~h2, ~h2;G, G -> G, ~h1, ~h1;G, G -> G, ~h2, ~h2
#yName Diff. cross section [pb/GeV]{h}
#xName Z(jet)
#xMin 0.000000E+00
#xMax 1.000000E+03
#xDim 100
#---   starting of data ---
#  Diff. cross   d(Diff. cros
# 0.000000E+00    0.000000E+00
# 0.000000E+00    0.000000E+00
# 0.000000E+00    0.000000E+00
# 0.000000E+00    0.000000E+00
# 0.000000E+00    0.000000E+00
# 0.000000E+00    0.000000E+00
# 0.000000E+00    0.000000E+00
# 0.000000E+00    0.000000E+00
# 0.000000E+00    0.000000E+00
# 0.000000E+00    0.000000E+00
 6.111112E-08    2.516687E-10
 5.239208E-08    2.167123E-10
 4.574956E-08    1.976845E-10
 4.014378E-08    1.692553E-10
 3.550693E-08    1.500676E-10
 3.176659E-08    1.371530E-10
 2.821863E-08    1.233907E-10
 2.541899E-08    1.139607E-10
 2.264982E-08    1.027822E-10
 2.072819E-08    9.565370E-11
 1.904735E-08    9.090373E-11
 1.726794E-08    8.244043E-11
 1.568615E-08    7.663750E-11
 1.452313E-08    7.642545E-11
 1.344058E-08    6.808964E-11
 1.229520E-08    6.460392E-11
 1.136994E-08    6.001384E-11
 1.046954E-08    5.637864E-11
 9.636123E-09    5.331855E-11
 9.005357E-09    5.073210E-11
 8.490464E-09    4.824531E-11
 7.870133E-09    4.570338E-11
 7.347287E-09    4.361405E-11
 6.802503E-09    4.159703E-11
 6.347649E-09    4.025384E-11
 5.970986E-09    3.764099E-11
 5.641797E-09    3.654202E-11
 5.163764E-09    3.443911E-11
 4.925118E-09    3.342490E-11
 4.655945E-09    3.340338E-11
 4.346558E-09    3.064722E-11
 4.131436E-09    2.973846E-11
 3.897863E-09    2.916863E-11
 3.624224E-09    2.724019E-11
 3.421712E-09    2.576583E-11
 3.290479E-09    2.579017E-11
 3.069085E-09    2.423657E-11
 2.906826E-09    2.387750E-11
 2.741830E-09    2.262091E-11
 2.572519E-09    2.181636E-11
 2.487538E-09    2.138993E-11
 2.317470E-09    2.040421E-11
 2.202693E-09    1.991360E-11
 2.140398E-09    2.069132E-11
 1.994359E-09    1.852111E-11
 1.879248E-09    1.809532E-11
 1.788421E-09    1.760799E-11
 1.685167E-09    1.680211E-11
 1.612700E-09    1.645050E-11
 1.552302E-09    1.605919E-11
 1.464289E-09    1.568536E-11
 1.400239E-09    1.560021E-11
 1.350106E-09    1.474607E-11
 1.242353E-09    1.411021E-11
 1.195567E-09    1.464042E-11
 1.141806E-09    1.349345E-11
 1.114831E-09    1.342975E-11
 1.038210E-09    1.319534E-11
 9.867679E-10    1.258987E-11
 9.347304E-10    1.238843E-11
 9.211929E-10    1.260674E-11
 8.639107E-10    1.187506E-11
 8.545837E-10    1.329839E-11
 7.842344E-10    1.134390E-11
 7.534179E-10    1.065356E-11
 7.353122E-10    1.123219E-11
 6.728858E-10    9.764481E-12
 6.529541E-10    9.730582E-12
 6.218125E-10    9.991982E-12
 6.018031E-10    9.447157E-12
 5.879251E-10    9.637004E-12
 5.360797E-10    9.110943E-12
 5.327071E-10    9.068458E-12
 4.994587E-10    8.761032E-12
 4.787324E-10    8.683510E-12
 4.720306E-10    8.428593E-12
 4.315061E-10    7.971533E-12
 4.117320E-10    7.629513E-12
 4.025111E-10    7.884614E-12
 3.933565E-10    7.974608E-12
 3.737622E-10    7.395699E-12
 3.596400E-10    7.645356E-12
 3.450698E-10    7.618696E-12
 3.213736E-10    6.679261E-12
 3.205076E-10    7.134657E-12
 3.028738E-10    7.091246E-12
 2.907924E-10    6.633735E-12
 2.795244E-10    6.476292E-12
 2.699340E-10    6.514464E-12
 2.521315E-10    6.822887E-12
