#title u, U -> H, ~h1, ~h1;u, U -> H, ~h1, ~h2;u, U -> H, ~h2, ~h2;U, u -> H, ~h1, ~h1;U, u -> H, ~h1, ~h2;U, u -> H, ~h2, ~h2;d, D -> H, ~h1, ~h1;d, D -> H, ~h1, ~h2;d, D -> H, ~h2, ~h2;D, d -> H, ~h1, ~h1;D, d -> H, ~h1, ~h2;D, d -> H, ~h2, ~h2;G, G -> H, ~h1, ~h1;G, G -> H, ~h2, ~h2
#yName Diff. cross section [pb/GeV]{h}
#xName Z(H)
#xMin 0.000000E+00
#xMax 1.000000E+03
#xDim 100
#---   starting of data ---
#  Diff. cross   d(Diff. cros
# 0.000000E+00    0.000000E+00
# 0.000000E+00    0.000000E+00
# 0.000000E+00    0.000000E+00
# 0.000000E+00    0.000000E+00
# 0.000000E+00    0.000000E+00
# 0.000000E+00    0.000000E+00
# 0.000000E+00    0.000000E+00
# 0.000000E+00    0.000000E+00
# 0.000000E+00    0.000000E+00
# 0.000000E+00    0.000000E+00
# 0.000000E+00    0.000000E+00
# 0.000000E+00    0.000000E+00
# 0.000000E+00    0.000000E+00
# 0.000000E+00    0.000000E+00
# 0.000000E+00    0.000000E+00
# 0.000000E+00    0.000000E+00
 8.891196E-08    1.059759E-10
 7.797794E-08    8.862539E-11
 6.843631E-08    7.859299E-11
 6.036458E-08    7.159344E-11
 5.342651E-08    6.622084E-11
 4.771512E-08    6.209691E-11
 4.288515E-08    5.883351E-11
 3.867897E-08    5.589082E-11
 3.500460E-08    5.333905E-11
 3.184496E-08    5.122326E-11
 2.914594E-08    4.946586E-11
 2.661162E-08    4.754991E-11
 2.448265E-08    4.585575E-11
 2.267916E-08    4.456474E-11
 2.094453E-08    4.316895E-11
 1.948165E-08    4.190245E-11
 1.808892E-08    4.062619E-11
 1.691676E-08    3.971139E-11
 1.579987E-08    3.908528E-11
 1.485649E-08    3.768559E-11
 1.392907E-08    3.676940E-11
 1.302545E-08    3.571050E-11
 1.231158E-08    3.498322E-11
 1.147363E-08    3.393206E-11
 1.093103E-08    3.342658E-11
 1.028624E-08    3.260445E-11
 9.776558E-09    3.191179E-11
 9.276423E-09    3.140499E-11
 8.864324E-09    3.059279E-11
 8.374153E-09    2.990707E-11
 7.913841E-09    2.927902E-11
 7.578980E-09    2.883301E-11
 7.192829E-09    2.813566E-11
 6.876966E-09    2.775706E-11
 6.539632E-09    2.705429E-11
 6.186047E-09    2.633403E-11
 5.960458E-09    2.614014E-11
 5.708454E-09    2.552868E-11
 5.427070E-09    2.501330E-11
 5.221301E-09    2.475989E-11
 4.946314E-09    2.410831E-11
 4.800990E-09    2.377018E-11
 4.572045E-09    2.333338E-11
 4.335123E-09    2.282721E-11
 4.175063E-09    2.247562E-11
 4.010445E-09    2.195164E-11
 3.848710E-09    2.175088E-11
 3.709291E-09    2.142949E-11
 3.525089E-09    2.099925E-11
 3.367526E-09    2.040230E-11
 3.253658E-09    2.024895E-11
 3.117413E-09    1.980830E-11
 3.018329E-09    1.963113E-11
 2.923832E-09    1.952325E-11
 2.800865E-09    1.914844E-11
 2.670266E-09    1.868244E-11
 2.580608E-09    1.864612E-11
 2.478875E-09    1.819658E-11
 2.414817E-09    1.802940E-11
 2.289234E-09    1.750751E-11
 2.203841E-09    1.727493E-11
 2.133644E-09    1.696930E-11
 2.050448E-09    1.653113E-11
 1.955388E-09    1.628618E-11
 1.883823E-09    1.612253E-11
 1.819861E-09    1.606514E-11
 1.783451E-09    1.568293E-11
 1.701109E-09    1.548662E-11
 1.639396E-09    1.522334E-11
 1.584908E-09    1.536114E-11
 1.531380E-09    1.483004E-11
 1.466442E-09    1.453065E-11
 1.419749E-09    1.452088E-11
 1.370419E-09    1.420374E-11
 1.302693E-09    1.381416E-11
 1.278538E-09    1.371969E-11
 1.240411E-09    1.363503E-11
 1.195509E-09    1.359594E-11
 1.161272E-09    1.351044E-11
 1.122460E-09    1.319986E-11
 1.084793E-09    1.302993E-11
 1.031835E-09    1.290413E-11
 1.037262E-09    1.295246E-11
 9.746104E-10    1.236627E-11
