#title u, U -> H, ~h1, ~h1;u, U -> H, ~h1, ~h2;u, U -> H, ~h2, ~h2;U, u -> H, ~h1, ~h1;U, u -> H, ~h1, ~h2;U, u -> H, ~h2, ~h2;d, D -> H, ~h1, ~h1;d, D -> H, ~h1, ~h2;d, D -> H, ~h2, ~h2;D, d -> H, ~h1, ~h1;D, d -> H, ~h1, ~h2;D, d -> H, ~h2, ~h2;G, G -> H, ~h1, ~h1;G, G -> H, ~h2, ~h2
#yName Diff. cross section [pb/GeV]{h}
#xName Z(H)
#xMin 0.000000E+00
#xMax 1.000000E+03
#xDim 100
#---   starting of data ---
#  Diff. cross   d(Diff. cros
# 0.000000E+00    0.000000E+00
# 0.000000E+00    0.000000E+00
# 0.000000E+00    0.000000E+00
# 0.000000E+00    0.000000E+00
# 0.000000E+00    0.000000E+00
# 0.000000E+00    0.000000E+00
# 0.000000E+00    0.000000E+00
# 0.000000E+00    0.000000E+00
# 0.000000E+00    0.000000E+00
# 0.000000E+00    0.000000E+00
# 0.000000E+00    0.000000E+00
# 0.000000E+00    0.000000E+00
# 0.000000E+00    0.000000E+00
# 0.000000E+00    0.000000E+00
# 0.000000E+00    0.000000E+00
# 0.000000E+00    0.000000E+00
 7.109530E-11    1.350480E-13
 6.844317E-11    1.284751E-13
 6.576176E-11    1.229022E-13
 6.318161E-11    1.179891E-13
 6.123170E-11    1.144882E-13
 5.868031E-11    1.107000E-13
 5.696142E-11    1.082521E-13
 5.468810E-11    1.049943E-13
 5.268631E-11    1.025444E-13
 5.105572E-11    1.007120E-13
 4.927426E-11    9.867513E-14
 4.768753E-11    9.703006E-14
 4.620618E-11    9.548360E-14
 4.473244E-11    9.394534E-14
 4.318624E-11    9.230669E-14
 4.179308E-11    9.093400E-14
 4.057951E-11    8.960980E-14
 3.922017E-11    8.824584E-14
 3.802612E-11    8.687257E-14
 3.699507E-11    8.585484E-14
 3.585182E-11    8.473932E-14
 3.482973E-11    8.354284E-14
 3.380880E-11    8.246603E-14
 3.260757E-11    8.103847E-14
 3.167523E-11    8.011399E-14
 3.085139E-11    7.907035E-14
 2.991947E-11    7.789185E-14
 2.903158E-11    7.705787E-14
 2.825062E-11    7.624969E-14
 2.744548E-11    7.522106E-14
 2.660226E-11    7.412333E-14
 2.586053E-11    7.324571E-14
 2.520611E-11    7.249171E-14
 2.445650E-11    7.150919E-14
 2.352666E-11    7.013247E-14
 2.295459E-11    6.956739E-14
 2.231668E-11    6.879343E-14
 2.173094E-11    6.822212E-14
 2.108696E-11    6.712734E-14
 2.052069E-11    6.642669E-14
 1.996425E-11    6.575004E-14
 1.930122E-11    6.460085E-14
 1.881955E-11    6.408155E-14
 1.813393E-11    6.297359E-14
 1.765724E-11    6.227607E-14
 1.710671E-11    6.131310E-14
 1.663016E-11    6.076466E-14
 1.617779E-11    6.015347E-14
 1.578044E-11    5.946006E-14
 1.522890E-11    5.844318E-14
 1.483246E-11    5.804051E-14
 1.435540E-11    5.716194E-14
 1.396824E-11    5.659454E-14
 1.371273E-11    5.607571E-14
 1.320802E-11    5.527367E-14
 1.286012E-11    5.452264E-14
 1.247237E-11    5.394458E-14
 1.213078E-11    5.338012E-14
 1.175087E-11    5.263262E-14
 1.142507E-11    5.207274E-14
 1.107397E-11    5.135622E-14
 1.064332E-11    5.051228E-14
 1.047793E-11    5.030470E-14
 1.011767E-11    4.938583E-14
 9.740990E-12    4.850647E-14
 9.568172E-12    4.836812E-14
 9.297871E-12    4.804711E-14
 9.049523E-12    4.735042E-14
 8.781833E-12    4.675926E-14
 8.633237E-12    4.654314E-14
 8.162011E-12    4.536515E-14
 7.979193E-12    4.475223E-14
 7.803385E-12    4.455150E-14
 7.484152E-12    4.361733E-14
 7.363827E-12    4.366053E-14
 7.082016E-12    4.292151E-14
 6.875880E-12    4.244361E-14
 6.656076E-12    4.177253E-14
 6.512040E-12    4.139427E-14
 6.312412E-12    4.094551E-14
 6.182317E-12    4.063327E-14
 5.998686E-12    4.019539E-14
 5.736540E-12    3.949006E-14
 5.553268E-12    3.882694E-14
