#title u, U -> H, ~h1, ~h1;u, U -> H, ~h1, ~h2;u, U -> H, ~h2, ~h2;U, u -> H, ~h1, ~h1;U, u -> H, ~h1, ~h2;U, u -> H, ~h2, ~h2;d, D -> H, ~h1, ~h1;d, D -> H, ~h1, ~h2;d, D -> H, ~h2, ~h2;D, d -> H, ~h1, ~h1;D, d -> H, ~h1, ~h2;D, d -> H, ~h2, ~h2;G, G -> H, ~h1, ~h1;G, G -> H, ~h2, ~h2
#yName Diff. cross section [pb/GeV]{h}
#xName Z(H)
#xMin 0.000000E+00
#xMax 1.000000E+03
#xDim 100
#---   starting of data ---
#  Diff. cross   d(Diff. cros
# 0.000000E+00    0.000000E+00
# 0.000000E+00    0.000000E+00
# 0.000000E+00    0.000000E+00
# 0.000000E+00    0.000000E+00
# 0.000000E+00    0.000000E+00
# 0.000000E+00    0.000000E+00
# 0.000000E+00    0.000000E+00
# 0.000000E+00    0.000000E+00
# 0.000000E+00    0.000000E+00
# 0.000000E+00    0.000000E+00
# 0.000000E+00    0.000000E+00
# 0.000000E+00    0.000000E+00
# 0.000000E+00    0.000000E+00
# 0.000000E+00    0.000000E+00
# 0.000000E+00    0.000000E+00
# 0.000000E+00    0.000000E+00
 4.788528E-12    1.138011E-14
 4.754258E-12    1.119799E-14
 4.629760E-12    1.081634E-14
 4.505388E-12    1.052620E-14
 4.411741E-12    1.029191E-14
 4.314719E-12    1.007326E-14
 4.225882E-12    9.882993E-15
 4.119149E-12    9.675262E-15
 4.036133E-12    9.507496E-15
 3.934071E-12    9.344358E-15
 3.849364E-12    9.209955E-15
 3.764722E-12    9.077792E-15
 3.702697E-12    8.986194E-15
 3.609178E-12    8.851482E-15
 3.524520E-12    8.744408E-15
 3.456490E-12    8.644877E-15
 3.382894E-12    8.557864E-15
 3.336764E-12    8.498265E-15
 3.255928E-12    8.384205E-15
 3.170415E-12    8.271451E-15
 3.123313E-12    8.229397E-15
 3.043832E-12    8.103084E-15
 2.991895E-12    8.094613E-15
 2.933211E-12    7.981490E-15
 2.857805E-12    7.863677E-15
 2.793774E-12    7.782479E-15
 2.730942E-12    7.697131E-15
 2.677653E-12    7.617287E-15
 2.623001E-12    7.562478E-15
 2.547650E-12    7.471528E-15
 2.508106E-12    7.416522E-15
 2.453533E-12    7.319953E-15
 2.392892E-12    7.233538E-15
 2.352433E-12    7.175880E-15
 2.287288E-12    7.086910E-15
 2.241072E-12    7.030388E-15
 2.189796E-12    6.954721E-15
 2.148233E-12    6.887357E-15
 2.085969E-12    6.799940E-15
 2.032857E-12    6.698001E-15
 1.993642E-12    6.660298E-15
 1.943975E-12    6.594874E-15
 1.906337E-12    6.522227E-15
 1.868413E-12    6.477119E-15
 1.829561E-12    6.418021E-15
 1.792054E-12    6.375209E-15
 1.726518E-12    6.249580E-15
 1.680070E-12    6.168366E-15
 1.653161E-12    6.131259E-15
 1.611546E-12    6.050382E-15
 1.574719E-12    6.014790E-15
 1.536956E-12    5.935226E-15
 1.500417E-12    5.883983E-15
 1.468311E-12    5.849476E-15
 1.431871E-12    5.764849E-15
 1.400503E-12    5.707596E-15
 1.365684E-12    5.647919E-15
 1.313928E-12    5.538503E-15
 1.298761E-12    5.517583E-15
 1.262982E-12    5.451660E-15
 1.235977E-12    5.412706E-15
 1.199652E-12    5.336444E-15
 1.172716E-12    5.306846E-15
 1.142099E-12    5.234712E-15
 1.120142E-12    5.210972E-15
 1.088791E-12    5.141969E-15
 1.061530E-12    5.069195E-15
 1.028391E-12    4.999236E-15
 9.947093E-13    4.907848E-15
 9.753061E-13    4.881172E-15
 9.567947E-13    4.841594E-15
 9.256597E-13    4.770802E-15
 9.078302E-13    4.737247E-15
 8.828384E-13    4.700006E-15
 8.544452E-13    4.629034E-15
 8.325982E-13    4.568347E-15
 8.126374E-13    4.534721E-15
 7.980633E-13    4.481575E-15
 7.668150E-13    4.414487E-15
 7.560883E-13    4.400619E-15
 7.323458E-13    4.328515E-15
 7.132501E-13    4.307007E-15
 6.916455E-13    4.219485E-15
 6.762353E-13    4.188204E-15
